sigma_R (um^-2) KD_eff (M) adsorbed_fraction
1.000e+00 7.634e-03 1.060e-06 7.556e-03 1.071e-06  1.070e-03 7.561e-06 6.246e-02 1.295e-07  6.248e-02 1.295e-07  1.075e-03 7.527e-06 6.108e-02 1.324e-07   
1.207e+00 7.624e-03 1.061e-06 7.529e-03 1.074e-06  1.061e-03 7.623e-06 6.242e-02 1.296e-07  6.244e-02 1.296e-07  1.048e-03 7.719e-06 6.075e-02 1.332e-07   
1.456e+00 7.611e-03 1.063e-06 7.497e-03 1.079e-06  1.051e-03 7.699e-06 6.236e-02 1.297e-07  6.239e-02 1.297e-07  1.016e-03 7.958e-06 6.035e-02 1.340e-07   
1.758e+00 7.596e-03 1.065e-06 7.458e-03 1.085e-06  1.038e-03 7.791e-06 6.230e-02 1.298e-07  6.233e-02 1.298e-07  9.798e-04 8.255e-06 5.988e-02 1.351e-07   
2.121e+00 7.577e-03 1.068e-06 7.411e-03 1.092e-06  1.023e-03 7.904e-06 6.222e-02 1.300e-07  6.225e-02 1.299e-07  9.374e-04 8.629e-06 5.932e-02 1.364e-07   
2.560e+00 7.555e-03 1.071e-06 7.354e-03 1.100e-06  1.006e-03 8.043e-06 6.212e-02 1.302e-07  6.216e-02 1.301e-07  8.886e-04 9.104e-06 5.865e-02 1.379e-07   
3.089e+00 7.527e-03 1.075e-06 7.286e-03 1.110e-06  9.847e-04 8.215e-06 6.200e-02 1.305e-07  6.206e-02 1.304e-07  8.330e-04 9.710e-06 5.784e-02 1.398e-07   
3.728e+00 7.494e-03 1.079e-06 7.204e-03 1.123e-06  9.600e-04 8.426e-06 6.186e-02 1.308e-07  6.193e-02 1.306e-07  7.706e-04 1.050e-05 5.689e-02 1.422e-07   
4.498e+00 7.454e-03 1.085e-06 7.105e-03 1.139e-06  9.309e-04 8.690e-06 6.169e-02 1.311e-07  6.177e-02 1.310e-07  7.015e-04 1.153e-05 5.576e-02 1.451e-07   
5.429e+00 7.405e-03 1.092e-06 6.985e-03 1.158e-06  8.968e-04 9.020e-06 6.149e-02 1.315e-07  6.158e-02 1.314e-07  6.263e-04 1.292e-05 5.443e-02 1.486e-07   
6.551e+00 7.346e-03 1.101e-06 6.841e-03 1.182e-06  8.573e-04 9.435e-06 6.125e-02 1.321e-07  6.136e-02 1.318e-07  5.462e-04 1.481e-05 5.286e-02 1.530e-07   
7.906e+00 7.274e-03 1.112e-06 6.668e-03 1.213e-06  8.119e-04 9.964e-06 6.095e-02 1.327e-07  6.109e-02 1.324e-07  4.630e-04 1.747e-05 5.103e-02 1.585e-07   
9.541e+00 7.186e-03 1.126e-06 6.461e-03 1.252e-06  7.600e-04 1.064e-05 6.060e-02 1.335e-07  6.076e-02 1.331e-07  3.794e-04 2.132e-05 4.890e-02 1.654e-07   
1.151e+01 7.079e-03 1.143e-06 6.212e-03 1.302e-06  7.017e-04 1.153e-05 6.018e-02 1.344e-07  6.037e-02 1.340e-07  2.983e-04 2.712e-05 4.645e-02 1.741e-07   
1.389e+01 6.947e-03 1.164e-06 5.916e-03 1.367e-06  6.370e-04 1.270e-05 5.968e-02 1.356e-07  5.990e-02 1.350e-07  2.231e-04 3.625e-05 4.366e-02 1.853e-07   
1.677e+01 6.786e-03 1.192e-06 5.564e-03 1.454e-06  5.667e-04 1.427e-05 5.907e-02 1.369e-07  5.934e-02 1.363e-07  1.572e-04 5.145e-05 4.052e-02 1.997e-07   
2.024e+01 6.588e-03 1.228e-06 5.149e-03 1.571e-06  4.919e-04 1.645e-05 5.835e-02 1.386e-07  5.867e-02 1.379e-07  1.030e-04 7.851e-05 3.702e-02 2.185e-07   
2.442e+01 6.345e-03 1.275e-06 4.666e-03 1.734e-06  4.144e-04 1.952e-05 5.749e-02 1.407e-07  5.788e-02 1.398e-07  6.186e-05 1.307e-04 3.320e-02 2.437e-07   
2.947e+01 6.046e-03 1.338e-06 4.111e-03 1.967e-06  3.369e-04 2.401e-05 5.647e-02 1.432e-07  5.693e-02 1.421e-07  3.343e-05 2.419e-04 2.911e-02 2.779e-07   
3.556e+01 5.677e-03 1.425e-06 3.491e-03 2.317e-06  2.624e-04 3.083e-05 5.527e-02 1.464e-07  5.581e-02 1.449e-07  1.591e-05 5.080e-04 2.484e-02 3.256e-07   
4.292e+01 5.227e-03 1.548e-06 2.822e-03 2.866e-06  4.437e-04 1.823e-05 5.385e-02 1.502e-07  5.448e-02 1.485e-07  6.495e-06 1.243e-03 2.051e-02 3.943e-07   
5.179e+01 4.682e-03 1.728e-06 2.136e-03 3.787e-06  3.373e-04 2.398e-05 5.218e-02 1.550e-07  5.293e-02 1.528e-07  2.203e-06 3.653e-03 1.628e-02 4.967e-07   
6.251e+01 4.034e-03 2.005e-06 1.482e-03 5.458e-06  2.416e-04 3.348e-05 5.024e-02 1.610e-07  5.110e-02 1.583e-07  5.979e-07 1.328e-02 1.232e-02 6.564e-07   
7.543e+01 3.291e-03 2.458e-06 9.182e-04 8.810e-06  1.610e-04 5.023e-05 4.799e-02 1.686e-07  4.899e-02 1.651e-07  1.239e-07 5.992e-02 8.805e-03 9.187e-07   
9.103e+01 2.486e-03 3.254e-06 4.925e-04 1.642e-05  9.833e-05 8.226e-05 4.541e-02 1.781e-07  4.656e-02 1.737e-07  1.857e-08 2.796e-01 5.868e-03 1.378e-06   
1.099e+02 1.689e-03 4.789e-06 2.207e-04 3.664e-05  5.400e-05 1.498e-04 4.248e-02 1.904e-07  4.378e-02 1.848e-07  1.880e-09 7.523e-01 3.597e-03 2.249e-06   
1.326e+02 9.967e-04 8.116e-06 7.946e-05 1.018e-04  2.608e-05 3.100e-04 3.920e-02 2.064e-07  4.065e-02 1.990e-07  1.187e-10 9.768e-01 1.992e-03 4.060e-06   
1.600e+02 4.910e-04 1.647e-05 2.194e-05 3.685e-04  1.079e-05 7.491e-04 3.557e-02 2.274e-07  3.716e-02 2.177e-07  4.240e-12 9.991e-01 9.769e-04 8.281e-06   
1.931e+02 1.939e-04 4.171e-05 4.402e-06 1.833e-03  1.307e-05 6.185e-04 3.164e-02 2.557e-07  3.336e-02 2.425e-07  7.627e-14 1.000e+00 4.135e-04 1.956e-05   
2.330e+02 5.880e-05 1.376e-04 5.999e-07 1.324e-02  4.181e-06 1.929e-03 2.746e-02 2.945e-07  2.928e-02 2.763e-07  6.001e-16 1.000e+00 1.465e-04 5.520e-05   
2.812e+02 1.300e-05 6.216e-04 5.116e-08 1.305e-01  1.038e-06 7.708e-03 2.316e-02 3.493e-07  2.501e-02 3.234e-07  1.744e-18 1.000e+00 4.193e-05 1.929e-04   
3.393e+02 1.967e-06 4.088e-03 2.468e-09 7.038e-01  1.891e-07 4.039e-02 1.885e-02 4.292e-07  2.069e-02 3.910e-07  1.528e-21 1.000e+00 9.269e-06 8.716e-04   
4.095e+02 1.879e-07 4.064e-02 5.959e-11 9.881e-01  2.361e-08 2.371e-01 1.470e-02 5.503e-07  1.645e-02 4.917e-07  3.165e-25 1.000e+00 1.501e-06 5.348e-03   
4.942e+02 1.025e-08 3.997e-01 6.207e-13 9.999e-01  1.857e-09 7.544e-01 1.089e-02 7.427e-07  1.248e-02 6.484e-07  1.157e-29 1.000e+00 1.672e-07 4.537e-02   
5.964e+02 2.831e-10 9.473e-01 2.331e-15 1.000e+00  3.895e-10 9.297e-01 7.585e-03 1.066e-06  8.936e-03 9.052e-07  5.269e-35 1.000e+00 1.185e-08 3.687e-01   
7.197e+02 3.418e-12 9.993e-01 2.545e-18 1.000e+00  1.085e-11 9.978e-01 4.902e-03 1.650e-06  5.974e-03 1.354e-06  1.973e-41 1.000e+00 4.878e-10 9.142e-01   
8.685e+02 1.516e-14 1.000e+00 6.240e-22 1.000e+00  1.338e-13 1.000e+00 2.894e-03 2.795e-06  3.676e-03 2.201e-06  3.714e-49 1.000e+00 1.043e-11 9.979e-01   
1.048e+03 2.009e-17 1.000e+00 2.526e-26 1.000e+00  6.048e-16 1.000e+00 1.533e-03 5.278e-06  2.045e-03 3.955e-06  1.968e-58 1.000e+00 1.016e-13 1.000e+00   
1.265e+03 6.213e-21 1.000e+00 1.171e-31 1.000e+00  7.896e-19 1.000e+00 7.117e-04 1.137e-05  1.009e-03 8.020e-06  1.495e-69 1.000e+00 3.838e-16 1.000e+00   
1.526e+03 3.355e-25 1.000e+00 4.022e-38 1.000e+00  1.762e-21 1.000e+00 2.820e-04 2.868e-05  4.298e-04 1.882e-05  7.555e-83 1.000e+00 4.660e-19 1.000e+00   
1.842e+03 2.243e-30 1.000e+00 6.117e-46 1.000e+00  1.049e-25 1.000e+00 9.232e-05 8.761e-05  1.536e-04 5.265e-05  1.103e-98 1.000e+00 1.451e-22 1.000e+00   
2.223e+03 1.238e-36 1.000e+00 2.239e-55 1.000e+00  2.551e-30 1.000e+00 2.400e-05 3.370e-04  4.441e-05 1.821e-04  2.108e-117 1.000e+00 8.877e-27 1.000e+00   
2.683e+03 3.495e-44 1.000e+00 9.623e-67 1.000e+00  0.000e+00 1.000e+00 4.722e-06 1.709e-03  9.943e-06 8.126e-04  4.057e-139 1.000e+00 7.817e-32 1.000e+00   
3.237e+03 2.891e-53 1.000e+00 2.097e-80 1.000e+00  0.000e+00 1.000e+00 6.645e-07 1.197e-02  1.636e-06 4.911e-03  2.842e-157 1.000e+00 6.925e-38 1.000e+00   
3.907e+03 3.674e-64 1.000e+00 8.773e-97 1.000e+00  0.000e+00 1.000e+00 6.238e-08 1.104e-01  1.857e-07 4.109e-02  6.084e-162 1.000e+00 4.150e-45 1.000e+00   
4.715e+03 3.455e-77 1.000e+00 2.355e-116 1.000e+00  0.000e+00 1.000e+00 3.595e-09 6.292e-01  1.349e-08 3.419e-01  1.927e-165 1.000e+00 1.129e-53 1.000e+00   
5.690e+03 1.093e-92 1.000e+00 1.248e-139 1.000e+00  0.000e+00 1.000e+00 1.150e-10 9.775e-01  5.724e-10 9.015e-01  1.863e-168 1.000e+00 1.097e-63 1.000e+00   
6.866e+03 5.544e-111 1.000e+00 4.343e-167 1.000e+00  0.000e+00 1.000e+00 1.810e-12 9.996e-01  1.273e-11 9.974e-01  3.425e-171 1.000e+00 3.668e-73 1.000e+00   
8.286e+03 3.377e-132 1.000e+00 6.663e-199 1.000e+00  0.000e+00 1.000e+00 1.210e-14 1.000e+00  1.302e-13 1.000e+00  9.578e-174 1.000e+00 3.060e-75 1.000e+00   
1.000e+04 4.721e-153 1.000e+00 3.777e-230 1.000e+00  0.000e+00 1.000e+00 2.880e-17 1.000e+00  5.244e-16 1.000e+00  3.592e-176 1.000e+00 9.751e-77 1.000e+00   
